t [s],tt [s],Step_Index,Cycle_Index,I [A],V [V],cap_charge [Ahr],cap_discharge [Ahr]
60.00121035,60.00121091,1,1,0,3.263306141,0,0
70.01036703,10.00871208,2,1,0.999833703,3.385529757,0.002779916,0
80.0170843,20.01542933,2,1,1.000014305,3.402204037,0.005559271,0
90.02868993,30.02703495,2,1,0.999833703,3.415964365,0.008340027,0
100.0364248,40.03476978,2,1,1.000194907,3.428267717,0.011119696,0
110.0421283,50.04047326,2,1,0.999833703,3.439275742,0.013898786,0
120.0430394,60.04138442,2,1,0.999833703,3.449636459,0.0166765,0
130.0497283,70.04807329,2,1,0.999833703,3.459511518,0.019455793,0
140.0574608,80.05580585,2,1,0.999833703,3.468739033,0.022235404,0
150.0593402,90.05768519,2,1,1.000014305,3.477480888,0.025013422,0
160.0680048,100.0663498,2,1,0.999833703,3.486060858,0.027793289,0
170.0727815,110.0711265,2,1,0.999833703,3.493993282,0.030572075,0
180.073625,120.07197,2,1,1.000014305,3.501763821,0.033349786,0
190.0833012,130.0816463,2,1,1.000014305,3.5090487,0.036129922,0
200.0899928,140.0883378,2,1,0.999833703,3.516171455,0.038909266,0
210.0899974,150.0883425,2,1,0.999833703,3.522970676,0.041686717,0
220.0976594,160.0960045,2,1,1.000014305,3.529284239,0.044466329,0
230.1063446,170.1046897,2,1,0.999833703,3.535435915,0.047246211,0
240.1063706,180.1047157,2,1,0.999833703,3.541101933,0.050023645,0
250.1139338,190.1122789,2,1,0.999833703,3.546282291,0.052803191,0
260.1196768,200.1180218,2,1,0.999653101,3.550653219,0.055582225,0
270.1312852,210.1296302,2,1,1.000014305,3.554214716,0.058362908,0
280.1370374,220.1353825,2,1,0.999833703,3.556804895,0.06114201,0
290.1418219,230.140167,2,1,0.999833703,3.558585644,0.063920783,0
300.1426104,240.1409554,2,1,0.999833703,3.56004262,0.066698461,0
310.1483636,250.1467087,2,1,0.999653101,3.561013937,0.069477538,0
320.1551495,260.1534945,2,1,0.999833703,3.561661482,0.072256907,0
330.1677056,270.1660507,2,1,1.000014305,3.562632799,0.07503786,0
340.1744661,280.1728111,2,1,1.000014305,3.562956572,0.077817213,0
350.1782856,290.1766306,2,1,1.000014305,3.56344223,0.080595755,0
360.1908296,300.1891746,2,1,1.000194907,3.564089775,0.083376732,0
370.1975514,310.1958964,2,1,1.000014305,3.564899206,0.086156074,0
380.2023072,320.2006522,2,1,0.999833703,3.565222979,0.08893484,0
390.213058,330.2114031,2,1,0.999833703,3.565870523,0.091715282,0
400.2187082,340.2170532,2,1,1.000014305,3.566356182,0.094494313,0
410.22349,350.2218352,2,1,0.999833703,3.567003727,0.097273091,0
420.2331138,360.2314588,2,1,0.999833703,3.567651272,0.100053234,0
430.2408351,370.2391802,2,1,0.999833703,3.56813693,0.102832842,0
440.2456452,380.2439902,2,1,0.999833703,3.568622589,0.105611584,0
450.2581862,390.2565312,2,1,1.000014305,3.569593906,0.108392469,0
460.263965,400.26231,2,1,0.999653101,3.570079565,0.111171489,0
470.2706677,410.2690128,2,1,0.999833703,3.570888996,0.113950818,0
480.2803187,420.2786638,2,1,0.999653101,3.571212769,0.116730959,0
490.2870446,430.2853896,2,1,0.999833703,3.5720222,0.119510251,0
500.2957431,440.2940881,2,1,1.000014305,3.572831631,0.122290117,0
510.2980262,450.2963709,2,1,0.999833703,3.573479176,0.125068205,0
520.3003934,460.2987384,2,1,1.000014305,3.574288607,0.127846307,0
530.3071483,470.3054934,2,1,1.000014305,3.574774265,0.130625608,0
540.3094207,480.3077654,2,1,0.999833703,3.57542181,0.133403655,0
550.3117811,490.3101261,2,1,1.000014305,3.576231241,0.13618177,0
560.3167441,500.3150893,2,1,0.999833703,3.576878786,0.138960623,0
570.3234861,510.3218312,2,1,0.999653101,3.577364445,0.141739962,0
580.3241692,520.3225142,2,1,0.999833703,3.578173876,0.144517614,0
590.3308848,530.3292299,2,1,0.999833703,3.578821421,0.14729693,0
600.3396103,540.3379554,2,1,1.000014305,3.579630852,0.150076779,0
610.3521863,550.3505313,2,1,1.000014305,3.580440283,0.152857706,0
620.3569806,560.3553256,2,1,1.000194907,3.581249714,0.155636468,0
630.3627035,570.3610485,2,1,1.000014305,3.581897259,0.158415512,0
640.3743351,580.3726801,2,1,1.000014305,3.58270669,0.161196206,0
650.3800826,590.3784276,2,1,0.999833703,3.583192348,0.16397524,0
660.387803,600.386148,2,1,0.999833703,3.58400178,0.166754859,0
670.3973954,610.3957404,2,1,1.000014305,3.584973097,0.169534994,0
680.404141,620.402486,2,1,1.000014305,3.585458755,0.172314359,0
690.4089293,630.4072743,2,1,1.000014305,3.586430073,0.175093137,0
700.4195652,640.4179103,2,1,1.000014305,3.587077618,0.177873534,0
710.4243097,650.4226547,2,1,0.999833703,3.587887049,0.180652313,0
720.4310771,660.4294221,2,1,0.999833703,3.58869648,0.183431653,0
730.4398073,670.4381524,2,1,1.000014305,3.589505911,0.18621149,0
740.4435574,680.4419024,2,1,1.000014305,3.590315342,0.188989933,0
750.4482957,690.4466407,2,1,0.999833703,3.591124773,0.191768714,0
760.4589611,700.4573061,2,1,0.999833703,3.591934204,0.194549094,0
770.4666683,710.4650133,2,1,1.000014305,3.592905283,0.197328712,0
780.4792619,720.4776069,2,1,1.000014305,3.5938766,0.200109682,0
790.4908362,730.4891813,2,1,0.999653101,3.594686031,0.202890332,0
800.4956476,740.4939926,2,1,1.000194907,3.595657349,0.205669145,0
810.4993943,750.4977393,2,1,0.999833703,3.596628666,0.208447674,0
820.5100787,760.5084237,2,1,0.999833703,3.597599983,0.211228108,0
830.5148316,770.5131766,2,1,0.999833703,3.598571301,0.214006864,0
840.5244914,780.5228364,2,1,0.999833703,3.599542618,0.216787012,0
850.5370721,790.5354172,2,1,0.999833703,3.600513935,0.219567928,0
860.5438502,800.5421952,2,1,0.999833703,3.601647139,0.222347257,0
870.5505069,810.5488519,2,1,1.000014305,3.602780342,0.225126613,0
880.5631509,820.5614959,2,1,0.999833703,3.604075432,0.227907596,0
890.56786,830.566205,2,1,0.999833703,3.604884863,0.230686384,0
900.5775438,840.5758888,2,1,0.999653101,3.606018066,0.233466574,0
910.5891378,850.5874828,2,1,1.000014305,3.607313156,0.236247279,0
920.5939612,860.5923062,2,1,1.000014305,3.608608246,0.239026075,0
930.5997003,870.5980453,2,1,0.999833703,3.609741449,0.241805123,0
940.6113209,880.6096659,2,1,0.999833703,3.610712767,0.244585776,0
950.6170393,890.6153843,2,1,0.999833703,3.612007856,0.247364766,0
960.6218271,900.6201721,2,1,0.999833703,3.612979174,0.250143541,0
970.622695,910.6210401,2,1,1.000014305,3.61443615,0.252921267,0
980.6274556,920.6258006,2,1,0.999833703,3.615569353,0.25570009,0
990.6341948,930.6325398,2,1,0.999653101,3.616702557,0.25847942,0
1000.643871,940.6422163,2,1,1.000014305,3.617997646,0.261259543,0
1010.651594,950.6499391,2,1,1.000014305,3.619292736,0.26403915,0
1020.65632,960.6546649,2,1,0.999833703,3.62042594,0.266817934,0
1030.667978,970.6663231,2,1,0.999833703,3.621721029,0.269598619,0
1040.675697,980.6740425,2,1,0.999833703,3.622854233,0.272378258,0
1050.680412,990.6787568,2,1,1.000194907,3.624311209,0.275157039,0
1060.690085,1000.68843,2,1,0.999833703,3.625444412,0.277937206,0
1070.695827,1010.694172,2,1,0.999833703,3.626577616,0.280716253,0
1080.700621,1020.698966,2,1,0.999653101,3.627872705,0.283495036,0
1090.711248,1030.709593,2,1,0.999833703,3.629167795,0.286275476,0
1100.719901,1040.718246,2,1,0.999833703,3.630462885,0.289055322,0
1110.723721,1050.722066,2,1,0.999833703,3.631757975,0.291833817,0
1120.73343,1060.731775,2,1,0.999833703,3.633053064,0.294613953,0
1130.737099,1070.735444,2,1,1.000014305,3.634348154,0.297392476,0
1140.743901,1080.742246,2,1,0.999833703,3.635481358,0.300171824,0
1150.753534,1090.751879,2,1,0.999833703,3.636776447,0.302951991,0
1160.757362,1100.755707,2,1,0.999833703,3.637747765,0.305730563,0
1170.762171,1110.760517,2,1,1.000014305,3.639204741,0.308509394,0
1180.772766,1120.771111,2,1,1.000014305,3.640176058,0.311289869,0
1190.775602,1130.773947,2,1,1.000014305,3.641309261,0.314068131,0
1200.781321,1140.779666,2,1,1.000014305,3.642442465,0.316847193,0
1210.790975,1150.78932,2,1,0.999653101,3.643251896,0.319627362,0
1220.794773,1160.793118,2,1,0.999833703,3.644546986,0.322405928,0
1230.798571,1170.796916,2,1,0.999833703,3.645518303,0.325184486,0
1240.808232,1180.806577,2,1,0.999833703,3.646651506,0.327964677,0
1250.812044,1190.810389,2,1,1.000014305,3.647946596,0.330743221,0
1260.81584,1200.814185,2,1,0.999833703,3.648917913,0.333521789,0
1270.826453,1210.824798,2,1,0.999833703,3.650051117,0.336302194,0
1280.830285,1220.82863,2,1,1.000014305,3.65118432,0.339080737,0
1290.83605,1230.834395,2,1,0.999833703,3.652155638,0.341859765,0
1300.846698,1240.845043,2,1,0.999833703,3.653288841,0.344640155,0
1310.852411,1250.850756,2,1,0.999833703,3.654583931,0.347419217,0
1320.858145,1260.85649,2,1,0.999833703,3.655717134,0.350198286,0
1330.859007,1270.857352,2,1,0.999833703,3.656526566,0.352976009,0
1340.863839,1280.862184,2,1,1.000014305,3.657821655,0.355754786,0
1350.86761,1290.865955,2,1,0.999653101,3.658792973,0.358533309,0
1360.876287,1300.874632,2,1,0.999833703,3.660249949,0.361313167,0
1370.880073,1310.878418,2,1,0.999833703,3.661383152,0.364091652,0
1380.883853,1320.882198,2,1,0.999833703,3.662516356,0.3668701,0
1390.894523,1330.892868,2,1,1.000014305,3.663811445,0.369650518,0
1400.898306,1340.896651,2,1,0.999833703,3.664944649,0.372429049,0
1410.902104,1350.900449,2,1,1.000014305,3.666077852,0.375207561,0
1420.912761,1360.911106,2,1,0.999833703,3.66704917,0.377987977,0
1430.916555,1370.9149,2,1,1.000014305,3.668182373,0.380766462,0
1440.920362,1380.918707,2,1,0.999833703,3.669315577,0.383544967,0
1450.930955,1390.9293,2,1,0.999833703,3.67044878,0.38632534,0
1460.936732,1400.935077,2,1,0.999833703,3.671096325,0.389104397,0
1470.940512,1410.938857,2,1,0.999833703,3.672067642,0.391882905,0
1480.951159,1420.949504,2,1,0.999833703,3.673200607,0.394663296,0
1490.955919,1430.954264,2,1,0.999833703,3.674010038,0.397442024,0
1500.961687,1440.960032,2,1,0.999653101,3.674981356,0.400221088,0
1510.97332,1450.971665,2,1,1.000014305,3.675790787,0.403001803,0
1520.980979,1460.979324,2,1,0.999833703,3.676762104,0.405781364,0
1530.98479,1470.983135,2,1,1.000014305,3.677409649,0.408559883,0
1540.995424,1480.993769,2,1,0.999653101,3.678057194,0.411340327,0
1550.999299,1490.997644,2,1,0.999833703,3.678704739,0.41411883,0
1561.004027,1501.002372,2,1,1.000014305,3.67951417,0.416897565,0
1571.014645,1511.01299,2,1,0.999833703,3.679999828,0.419677974,0
1581.02134,1521.019685,2,1,0.999833703,3.680485487,0.422457273,0
1591.025156,1531.023501,2,1,1.000014305,3.681294918,0.425235775,0
1601.034803,1541.033148,2,1,0.999833703,3.681942463,0.428015955,0
1611.038598,1551.036943,2,1,0.999833703,3.682266235,0.430794492,0
1621.043416,1561.041761,2,1,1.000014305,3.68291378,0.433573255,0
1631.053082,1571.051427,2,1,0.999653101,3.683237553,0.436353378,0
1641.05688,1581.055225,2,1,0.999833703,3.683723211,0.439131888,0
1651.06555,1591.063895,2,1,0.999833703,3.68420887,0.441911755,0
1661.07712,1601.075465,2,1,1.000014305,3.684694529,0.444692437,0
1671.08193,1611.080275,2,1,1.000014305,3.685342073,0.447471241,0
1681.086712,1621.085057,2,1,0.999653101,3.685665846,0.450249835,0
1691.096349,1631.094694,2,1,0.999653101,3.686151505,0.45302963,0
1701.100153,1641.098498,2,1,0.999833703,3.686637163,0.455807851,0
1711.103953,1651.102298,2,1,1.000014305,3.686960936,0.458586056,0
1721.114617,1661.112962,2,1,0.999833703,3.687284708,0.461366163,0
1731.120328,1671.118674,2,1,0.999653101,3.68760848,0.464144929,0
1741.124158,1681.122503,2,1,0.999653101,3.688094139,0.466923132,0
1751.133794,1691.132139,2,1,0.999653101,3.688417912,0.469702943,0
1761.138549,1701.136895,2,1,0.999833703,3.688741684,0.472481399,0
1771.143345,1711.14169,2,1,0.999833703,3.689065456,0.475259858,0
1781.153036,1721.151381,2,1,0.999833703,3.689713001,0.478039702,0
1791.156821,1731.155166,2,1,0.999653101,3.689874887,0.4808179,0
1801.161565,1741.15991,2,1,0.999653101,3.69019866,0.483596344,0
1811.173196,1751.171541,2,1,0.999653101,3.690684319,0.486376708,0
1821.178017,1761.176362,2,1,0.999833703,3.691169977,0.489155172,0
1831.182754,1771.181099,2,1,0.999833703,3.69149375,0.4919336,0
1841.192431,1781.190776,2,1,0.999653101,3.691655636,0.494713384,0
1851.199121,1791.197466,2,1,0.999653101,3.692141294,0.497492396,0
1861.202944,1801.201289,2,1,0.999833703,3.692465067,0.500270588,0
1871.214511,1811.212856,2,1,0.999653101,3.692788839,0.503050904,0
1881.218339,1821.216684,2,1,0.999653101,3.693274498,0.505829084,0
1891.222126,1831.220471,2,1,0.999833703,3.693760157,0.508607259,0
1901.231831,1841.230176,2,1,0.999653101,3.693922043,0.511387106,0
1911.236557,1851.234902,2,1,0.999833703,3.694407701,0.514165573,0
1921.240299,1861.238644,2,1,0.999833703,3.694731474,0.516943761,0
1931.25001,1871.248355,2,1,0.999653101,3.695055246,0.519723606,0
1941.253824,1881.252169,2,1,0.999653101,3.695379019,0.52250182,0
1951.261466,1891.259811,2,1,0.999653101,3.695702791,0.525281124,0
1961.273073,1901.271418,2,1,0.999833703,3.69618845,0.528061477,0
1971.277841,1911.276186,2,1,0.999833703,3.696512222,0.530840007,0
1981.283627,1921.281972,2,1,0.999833703,3.696997881,0.533618762,0
1991.293277,1931.291622,2,1,0.999653101,3.697321653,0.536398588,0
2001.298021,1941.296366,2,1,0.999833703,3.697645426,0.53917709,0
2011.303779,1951.302124,2,1,0.999833703,3.697969198,0.541955865,0
2021.315404,1961.313749,2,1,0.999653101,3.698292971,0.544736229,0
2031.320155,1971.3185,2,1,0.999653101,3.698778629,0.547514728,0
2041.325933,1981.324278,2,1,0.999833703,3.699102402,0.550293465,0
2051.335597,1991.333942,2,1,0.999833703,3.699426174,0.553073345,0
2061.344248,2001.342593,2,1,0.999833703,3.699911833,0.55585291,0
2071.35296,2011.351305,2,1,0.999833703,3.700235605,0.558632497,0
2081.363568,2021.361913,2,1,0.999833703,3.700559378,0.561412618,0
2091.372239,2031.370584,2,1,0.999653101,3.700721264,0.564192198,0
2101.377017,2041.375362,2,1,0.999833703,3.701368809,0.56697072,0
2111.379834,2051.378179,2,1,0.999833703,3.701692581,0.569748652,0
2121.388597,2061.386942,2,1,0.999833703,3.702016354,0.572528245,0
2131.39623,2071.394575,2,1,0.999653101,3.702340126,0.575307508,0
2141.400037,2081.398382,2,1,0.999833703,3.702825785,0.578085703,0
2151.412638,2091.410983,2,1,0.999653101,3.703311443,0.580866336,0
2161.423243,2101.421588,2,1,0.999833703,3.70347333,0.583646425,0
2171.429965,2111.42831,2,1,0.999833703,3.703797102,0.586425419,0
2181.43083,2121.429175,2,1,0.999833703,3.704120874,0.589202809,0
2191.439543,2131.437888,2,1,0.999653101,3.704606533,0.591982409,0
2201.447221,2141.445566,2,1,1.000014305,3.705092192,0.594761721,0
2211.450064,2151.448409,2,1,1.000014305,3.705415964,0.597539672,0
2221.460744,2161.459089,2,1,0.999833703,3.705739737,0.600319822,0
2231.467412,2171.465757,2,1,0.999833703,3.706225395,0.603098838,0
2241.470251,2181.468596,2,1,0.999833703,3.706549168,0.605876812,0
2251.476971,2191.475316,2,1,0.999833703,3.707034826,0.608655858,0
2261.478838,2201.477183,2,1,0.999833703,3.707358599,0.611433541,0
2271.490451,2211.488796,2,1,0.999833703,3.707682371,0.614213936,0
2281.499119,2221.497464,2,1,0.999653101,3.708006144,0.616993536,0
2291.506131,2231.504476,2,1,0.999833703,3.708329916,0.619772649,0
2301.518396,2241.516741,2,1,0.999833703,3.708815575,0.622553271,0
2311.525185,2251.52353,2,1,0.999833703,3.709139347,0.625332337,0
2321.5299,2261.528245,2,1,0.999833703,3.70946312,0.628110839,0
2331.540529,2271.538874,2,1,0.999653101,3.709948778,0.630890984,0
2341.54827,2281.546615,2,1,0.999833703,3.710434437,0.633670335,0
2351.554106,2291.552451,2,1,0.999833703,3.710758209,0.636449143,0
2361.565735,2301.56408,2,1,0.999833703,3.711243868,0.639229566,0
2371.573318,2311.571663,2,1,0.999833703,3.711729527,0.642008859,0
2381.57906,2321.577405,2,1,0.999653101,3.711891413,0.644787632,0
2391.58091,2331.579255,2,1,0.999833703,3.712215185,0.647565314,0
2401.588595,2341.58694,2,1,0.999833703,3.71286273,0.650344791,0
2411.593384,2351.591729,2,1,0.999833703,3.713186502,0.653123616,0
2421.604955,2361.6033,2,1,1.000194907,3.713672161,0.655904281,0
2431.610708,2371.609053,2,1,1.000014305,3.713995934,0.658683309,0
2441.617435,2381.61578,2,1,0.999833703,3.714481592,0.661462633,0
2451.629056,2391.627401,2,1,0.999833703,3.714805365,0.664243296,0
2461.634828,2401.633173,2,1,1.000014305,3.715291023,0.667022369,0
2471.640549,2411.638894,2,1,0.999653101,3.715776682,0.669801419,0
2481.64928,2421.647625,2,1,1.000194907,3.716100454,0.672581314,0
2491.653035,2431.65138,2,1,0.999833703,3.716424227,0.675359852,0
2501.659767,2441.658112,2,1,1.000194907,3.716909885,0.678139208,0
2511.67239,2451.670735,2,1,0.999833703,3.717233658,0.680920183,0
2521.677127,2461.675472,2,1,1.000014305,3.717881203,0.683698946,0
2531.683914,2471.682259,2,1,0.999833703,3.718043089,0.686478307,0
2541.695501,2481.693846,2,1,0.999833703,3.718528748,0.68925899,0
2551.703158,2491.701503,2,1,1.000014305,3.71885252,0.692038589,0
2561.708956,2501.707301,2,1,0.999833703,3.719338179,0.69481768,0
2571.710789,2511.709134,2,1,0.999833703,3.719661951,0.697595667,0
2581.715556,2521.713901,2,1,1.000014305,3.72014761,0.700374472,0
2591.720302,2531.718647,2,1,1.000014305,3.720795155,0.703153286,0
2601.722191,2541.720536,2,1,0.999833703,3.721118927,0.705931267,0
2611.726944,2551.725289,2,1,1.000014305,3.721604586,0.708710059,0
2621.731727,2561.730072,2,1,0.999833703,3.721928358,0.711488832,0
2631.732574,2571.730919,2,1,0.999833703,3.722414017,0.714266539,0
2641.737411,2581.735756,2,1,0.999833703,3.722899675,0.717045324,0
2651.742189,2591.740534,2,1,1.000014305,3.723385334,0.719824133,0
2661.753722,2601.752067,2,1,1.000014305,3.723709106,0.722604822,0
2671.757515,2611.75586,2,1,0.999833703,3.724032879,0.725383281,0
2681.762328,2621.760674,2,1,0.999833703,3.724680424,0.728162032,0
2691.772933,2631.771278,2,1,0.999833703,3.725166082,0.730942404,0
2701.777746,2641.776091,2,1,1.000014305,3.725651741,0.733721208,0
2711.781526,2651.779871,2,1,0.999653101,3.725975513,0.736499745,0
2721.794123,2661.792468,2,1,0.999833703,3.726461172,0.739280713,0
2731.799846,2671.798191,2,1,1.000014305,3.726946831,0.742059826,0
2741.805595,2681.80394,2,1,0.999833703,3.727270603,0.74483891,0
2751.815248,2691.813593,2,1,0.999833703,3.727756262,0.747619079,0
2761.819037,2701.817382,2,1,0.999833703,3.72824192,0.750397605,0
2771.822844,2711.821189,2,1,0.999833703,3.728727579,0.753176184,0
2781.831554,2721.8299,2,1,0.999833703,3.729051352,0.755956112,0
2791.83535,2731.833695,2,1,0.999833703,3.72953701,0.758734638,0
2801.839151,2741.837496,2,1,0.999833703,3.730022669,0.761513188,0
2811.8488,2751.847145,2,1,0.999833703,3.730508327,0.764293337,0
2821.852566,2761.850911,2,1,0.999653101,3.7308321,0.767071854,0
2831.856398,2771.854743,2,1,0.999833703,3.731479645,0.769850394,0
2841.867002,2781.865347,2,1,0.999653101,3.731965303,0.772630796,0
2851.870836,2791.869181,2,1,0.999833703,3.732289076,0.775409343,0
2861.874615,2801.87296,2,1,0.999833703,3.733098507,0.778187884,0
2871.885262,2811.883607,2,1,0.999833703,3.733422279,0.780968313,0
2881.889096,2821.887441,2,1,0.999833703,3.733907938,0.783746836,0
2891.892851,2831.891196,2,1,0.999833703,3.734393597,0.786525333,0
2901.900631,2841.898976,2,1,0.999653101,3.734717369,0.789304905,0
2911.904339,2851.902684,2,1,1.000014305,3.735203028,0.792083388,0
2921.90817,2861.906515,2,1,1.000014305,3.735850573,0.79486192,0
2931.918762,2871.917107,2,1,0.999833703,3.736336231,0.797642294,0
2941.924518,2881.922863,2,1,1.000014305,3.73682189,0.800421363,0
2951.928307,2891.926652,2,1,0.999833703,3.737307549,0.803199871,0
2961.937971,2901.936316,2,1,0.999833703,3.737631321,0.805980007,0
2971.940807,2911.939152,2,1,1.000014305,3.738440752,0.808758287,0
2981.944577,2921.942922,2,1,0.999833703,3.738764524,0.811536816,0
2991.945452,2931.943797,2,1,0.999833703,3.739412069,0.814314539,0
3001.949251,2941.947596,2,1,1.000014305,3.740059614,0.817093101,0
3011.955014,2951.953359,2,1,1.000014305,3.740545273,0.81987217,0
3021.963692,2961.962037,2,1,0.999833703,3.741030931,0.822652031,0
3031.967528,2971.965873,2,1,0.999653101,3.741354704,0.825430565,0
3041.971329,2981.969674,2,1,0.999833703,3.742002249,0.828209107,0
3051.981907,2991.980252,2,1,0.999833703,3.742487907,0.830989493,0
3061.985727,3001.984072,2,1,0.999833703,3.743135452,0.833767975,0
3071.989568,3011.987913,2,1,0.999653101,3.743459225,0.836546485,0
3081.999195,3021.99754,2,1,0.999833703,3.74410677,0.839326603,0
3092.002971,3032.001316,2,1,1.000014305,3.744592428,0.842105071,0
